# MO binding energies read from G09 output
# [32.779024, 1.933413, 0.851213, 0.851213, 0.851213]
# MO kinetic energies read from G09 output
# [46.26398, 5.215104, 4.254433, 4.254433, 4.254433]
# Incident electron energy [eV] | Total Sigma | Sigmas [Angstrom^2] (core electrons first)
23.0 0.0 0.0 0.0 0.0 0.0 0.0
24.0 0.01933001671727643 0.0 0.0 0.006443338905758811 0.006443338905758811 0.006443338905758811
25.0 0.04342254680237698 0.0 0.0 0.014474182267458993 0.014474182267458993 0.014474182267458993
26.0 0.06814431590793786 0.0 0.0 0.02271477196931262 0.02271477196931262 0.02271477196931262
27.0 0.09312641323651911 0.0 0.0 0.031042137745506373 0.031042137745506373 0.031042137745506373
28.0 0.11809680601937617 0.0 0.0 0.03936560200645872 0.03936560200645872 0.03936560200645872
29.0 0.14285565633405195 0.0 0.0 0.04761855211135065 0.04761855211135065 0.04761855211135065
29.999999999999996 0.1672572382798336 0.0 0.0 0.05575241275994453 0.05575241275994453 0.05575241275994453
31.000000000000004 0.19119657765784634 0.0 0.0 0.06373219255261545 0.06373219255261545 0.06373219255261545
32.0 0.2145995046663753 0.0 0.0 0.0715331682221251 0.0715331682221251 0.0715331682221251
33.0 0.2374151961557312 0.0 0.0 0.07913839871857707 0.07913839871857707 0.07913839871857707
34.0 0.25961054940793343 0.0 0.0 0.08653684980264448 0.08653684980264448 0.08653684980264448
35.0 0.2811659139864056 0.0 0.0 0.09372197132880188 0.09372197132880188 0.09372197132880188
36.0 0.3020718379297726 0.0 0.0 0.10069061264325753 0.10069061264325753 0.10069061264325753
37.0 0.32232657664836883 0.0 0.0 0.10744219221612294 0.10744219221612294 0.10744219221612294
38.0 0.34193417885348387 0.0 0.0 0.11397805961782796 0.11397805961782796 0.11397805961782796
39.0 0.36090301152425647 0.0 0.0 0.12030100384141883 0.12030100384141883 0.12030100384141883
40.0 0.3792446206510459 0.0 0.0 0.12641487355034864 0.12641487355034864 0.12641487355034864
41.0 0.39697284999370674 0.0 0.0 0.13232428333123558 0.13232428333123558 0.13232428333123558
42.0 0.414103158948239 0.0 0.0 0.13803438631607967 0.13803438631607967 0.13803438631607967
43.0 0.43065209465158627 0.0 0.0 0.14355069821719543 0.14355069821719543 0.14355069821719543
44.0 0.4466368839699779 0.0 0.0 0.14887896132332598 0.14887896132332598 0.14887896132332598
45.0 0.4620751189414595 0.0 0.0 0.15402503964715317 0.15402503964715317 0.15402503964715317
46.0 0.47698451524996455 0.0 0.0 0.15899483841665485 0.15899483841665485 0.15899483841665485
47.0 0.4913827278850731 0.0 0.0 0.1637942426283577 0.1637942426283577 0.1637942426283577
48.0 0.5052872116463072 0.0 0.0 0.16842907054876904 0.16842907054876904 0.16842907054876904
49.0 0.5187151168471981 0.0 0.0 0.17290503894906603 0.17290503894906603 0.17290503894906603
50.0 0.531683212658022 0.0 0.0 0.177227737552674 0.177227737552674 0.177227737552674
51.0 0.5442078321429309 0.0 0.0 0.1814026107143103 0.1814026107143103 0.1814026107143103
52.0 0.5563048343067171 0.0 0.0 0.18543494476890568 0.18543494476890568 0.18543494476890568
53.0 0.5683622409978702 0.0 0.0003726615467612945 0.18932985981703632 0.18932985981703632 0.18932985981703632
54.0 0.5806246326570851 0.0 0.001347717744138462 0.1930923049709822 0.1930923049709822 0.1930923049709822
54.99999999999999 0.5925246680233692 0.0 0.002343499158949787 0.1967270562881398 0.1967270562881398 0.1967270562881398
56.0 0.6040713738939616 0.0 0.0033552235587090825 0.2002387167784175 0.2002387167784175 0.2002387167784175
57.00000000000001 0.6152738790973267 0.0 0.00437872510100487 0.20363171799877394 0.20363171799877394 0.20363171799877394
58.0 0.6261413436357998 0.0 0.005410375090543159 0.20691032284841887 0.20691032284841887 0.20691032284841887
59.0 0.6366829013970471 0.0 0.006447013623106694 0.21007862925798013 0.21007862925798013 0.21007862925798013
59.99999999999999 0.6469076140879333 0.0 0.00748589049949947 0.21314057452947793 0.21314057452947793 0.21314057452947793
61.0 0.6568244344557792 0.0 0.008524614051847195 0.216099940134644 0.216099940134644 0.216099940134644
62.00000000000001 0.666442177198059 0.0 0.009561106739224981 0.21896035681961132 0.21896035681961132 0.21896035681961132
63.0 0.6757694962369118 0.0 0.010593566547725815 0.22172530989639536 0.22172530989639536 0.22172530989639536
64.0 0.6848148672608949 0.0 0.011620433378390428 0.2243981446275015 0.2243981446275015 0.2243981446275015
65.0 0.693586574622502 0.0 0.012640359730233806 0.22698207163075604 0.22698207163075604 0.22698207163075604
66.0 0.7020927018334796 0.0 0.013652185089253435 0.2294801722480754 0.2294801722480754 0.2294801722480754
67.0 0.7103411250268947 0.0 0.014654913521297318 0.23189540383519913 0.23189540383519913 0.23189540383519913
68.0 0.7183395088600347 0.0 0.01564769403987194 0.23423060494005427 0.23423060494005427 0.23423060494005427
69.0 0.7260953044194864 0.0 0.016629803381715675 0.23648850034592359 0.23648850034592359 0.23648850034592359
70.0 0.7336157487622768 0.0 0.01760063087517034 0.2386717059623688 0.2386717059623688 0.2386717059623688
71.0 0.7409078657873891 0.0 0.01855966513062756 0.24078273355225385 0.24078273355225385 0.24078273355225385
72.0 0.7479784681823437 0.0 0.019506482319903633 0.24282399528748003 0.24282399528748003 0.24282399528748003
73.0 0.7548341602316421 0.0 0.02044073584338385 0.2447978081294194 0.2447978081294194 0.2447978081294194
74.0 0.7614813413090561 0.0 0.021362147211058363 0.2467063980326659 0.2467063980326659 0.2467063980326659
75.0 0.767926209905242 0.0 0.022270497986891416 0.2485519039727835 0.2485519039727835 0.2485519039727835
76.0 0.774174768066846 0.0 0.023165622665934395 0.2503363818003039 0.2503363818003039 0.2503363818003039
77.0 0.7802328261440094 0.0 0.024047402370727302 0.25206180792442734 0.25206180792442734 0.25206180792442734
78.0 0.786106007760586 0.0 0.024915759268262245 0.2537300828307746 0.2537300828307746 0.2537300828307746
79.0 0.7917997549360033 0.0 0.0257706516214654 0.2553430344381793 0.2553430344381793 0.2553430344381793
80.0 0.7973193332999942 0.0 0.02661206940009632 0.25690242129996593 0.25690242129996593 0.25690242129996593
81.0 0.8026698373517623 0.0 0.027440030385417723 0.25840993565544823 0.25840993565544823 0.25840993565544823
82.0 0.8078561957238425 0.0 0.02825457671117314 0.25986720633755644 0.25986720633755644 0.25986720633755644
83.0 0.8128831764182125 0.0 0.029055771790504798 0.26127580154256924 0.26127580154256924 0.26127580154256924
84.0 0.8177553919883852 0.0 0.02984369758460406 0.26263723146792706 0.26263723146792706 0.26263723146792706
85.0 0.8224773046463528 0.0 0.03061845217424476 0.263952950824036 0.263952950824036 0.263952950824036
86.0 0.8270532312776042 0.0 0.03138014760001467 0.2652243612258632 0.2652243612258632 0.2652243612258632
87.0 0.8314873483510816 0.0 0.032128907941129846 0.26645281346998395 0.26645281346998395 0.26645281346998395
88.0 0.8357836967139775 0.0 0.032864867606270574 0.26763960970256895 0.26763960970256895 0.26763960970256895
89.0 0.8399461862638444 0.0 0.03358816981298496 0.2687860054836198 0.2687860054836198 0.2687860054836198
90.0 0.8439786004926029 0.0 0.03429896523492869 0.26989321175255804 0.26989321175255804 0.26989321175255804
91.0 0.8478846008988138 0.0 0.03499741079859524 0.2709623967000728 0.2709623967000728 0.2709623967000728
92.0 0.8516677312660592 0.0 0.03568366861328646 0.2719946875509242 0.2719946875509242 0.2719946875509242
93.0 0.855331421806475 0.0 0.03635790501991487 0.2729911722621867 0.2729911722621867 0.2729911722621867
94.0 0.8588789931695036 0.0 0.037020289745849366 0.27395290114121806 0.27395290114121806 0.27395290114121806
95.0 0.8623136603167271 0.0 0.03767099515444456 0.2748808883874275 0.2748808883874275 0.2748808883874275
96.0 0.8656385362643334 0.0 0.03831019557915293 0.2757761135617268 0.2757761135617268 0.2757761135617268
97.0 0.8688566356952744 0.0 0.0389380667332312 0.27663952298734773 0.27663952298734773 0.27663952298734773
98.0 0.8719708784436273 0.0 0.03955478518703552 0.2774720310855306 0.2774720310855306 0.2774720310855306
99.0 0.8749840928539756 0.0 0.04016052790576959 0.27827452164940203 0.27827452164940203 0.27827452164940203
100.0 0.8778990190189073 0.0 0.04075547184132064 0.27904784905919555 0.27904784905919555 0.27904784905919555
101.0 0.8807183118978907 0.0 0.041339793572500755 0.27979283944179667 0.27979283944179667 0.27979283944179667
102.0 0.8834445443209498 0.0 0.041913668988617814 0.28051029177744397 0.28051029177744397 0.28051029177744397
103.0 0.8860802098806195 0.0 0.0424772730118384 0.28120097895626034 0.28120097895626034 0.28120097895626034
104.0 0.8886277257157522 0.0 0.04303077935428354 0.2818656487871562 0.2818656487871562 0.2818656487871562
105.0 0.8910894351907145 0.0 0.04357436030622483 0.28250502496149654 0.28250502496149654 0.28250502496149654
106.0 0.8934676104735653 0.0 0.04410818655212715 0.2831198079738127 0.2831198079738127 0.2831198079738127
107.0 0.8957644550167232 0.0 0.04463242701162233 0.2837106760017003 0.2837106760017003 0.2837106760017003
108.0 0.8979821059436356 0.0 0.04514724870280077 0.2842782857469449 0.2842782857469449 0.2842782857469449
109.00000000000001 0.9001226363448581 0.0 0.045652816625475615 0.2848232732397942 0.2848232732397942 0.2848232732397942
109.99999999999999 0.9021880574869272 0.0 0.04614929366231608 0.2853462546082037 0.2853462546082037 0.2853462546082037
111.0 0.9041803209372891 0.0 0.04663684049596111 0.28584782681377596 0.28584782681377596 0.28584782681377596
112.0 0.9061013206084996 0.0 0.04711561554041641 0.2863285683560277 0.2863285683560277 0.2863285683560277
113.0 0.9079528947247928 0.0 0.04758577488521124 0.2867890399465272 0.2867890399465272 0.2867890399465272
114.00000000000001 0.9097368277140399 0.0 0.048047472250944565 0.2872297851543651 0.2872297851543651 0.2872297851543651
114.99999999999999 0.9114548520280159 0.0 0.04850085895498945 0.28765133102434215 0.28765133102434215 0.28765133102434215
116.0 0.9131086498938006 0.0 0.04894608388624802 0.2880541886691842 0.2880541886691842 0.2880541886691842
117.0 0.9146998549990396 0.0 0.0493832934879607 0.2884388538370263 0.2884388538370263 0.2884388538370263
118.0 0.9162300541136976 0.0 0.04981263174767411 0.2888058074553412 0.2888058074553412 0.2888058074553412
119.00000000000001 0.9177007886508379 0.0 0.05023424019356089 0.2891555161524257 0.2891555161524257 0.2891555161524257
119.99999999999999 0.9191135561688704 0.0 0.05064825789636623 0.2894884327575014 0.2894884327575014 0.2894884327575014
121.0 0.9204698118176164 0.0 0.05105482147632851 0.2898049967804293 0.2898049967804293 0.2898049967804293
122.0 0.9217709697304461 0.0 0.05145406511448573 0.2901056348719868 0.2901056348719868 0.2901056348719868
123.0 0.9230184043646625 0.0 0.05184612056784034 0.2903907612656074 0.2903907612656074 0.2903907612656074
124.00000000000001 0.9242134517922105 0.0 0.05223111718790588 0.2906607782014349 0.2906607782014349 0.2906607782014349
124.99999999999999 0.9253574109427132 0.0 0.05260918194220805 0.2909160763335017 0.2909160763335017 0.2909160763335017
126.0 0.9264515448007542 0.0 0.0529804394383553 0.29115703512079966 0.29115703512079966 0.29115703512079966
127.0 0.9274970815592476 0.0 0.0533450119503327 0.29138402320297163 0.29138402320297163 0.29138402320297163
128.0 0.928495215730657 0.0 0.053703019446708695 0.2915973987613161 0.2915973987613161 0.2915973987613161
129.0 0.9294471092177596 0.0 0.0540545796204744 0.29179750986576175 0.29179750986576175 0.29179750986576175
130.0 0.9303538923455743 0.0 0.05439980792026529 0.2919846948084363 0.2919846948084363 0.2919846948084363
131.0 0.9312166648560094 0.0 0.05473881758273971 0.2921592824244232 0.2921592824244232 0.2921592824244232
132.0 0.9320364968667174 0.0 0.05507171966591214 0.29232159240026845 0.29232159240026845 0.29232159240026845
133.0 0.9328144297955857 0.0 0.0553986230832604 0.2924719355707751 0.2924719355707751 0.2924719355707751
134.0 0.933551477252226 0.0 0.055719634638444496 0.29261061420459383 0.29261061420459383 0.29261061420459383
135.0 0.9342486258977735 0.0 0.05603485906049236 0.2927379222790937 0.2927379222790937 0.2927379222790937
136.0 0.9349068362742514 0.0 0.0563443990393227 0.29285414574497626 0.29285414574497626 0.29285414574497626
137.0 0.9355270436046971 0.0 0.0566483552614896 0.29295956278106916 0.29295956278106916 0.29295956278106916
138.0 0.9361101585652012 0.0 0.05694682644604585 0.2930544440397184 0.2930544440397184 0.2930544440397184
139.0 0.9366570680299641 0.0 0.05723990938043347 0.2931390528831769 0.2931390528831769 0.2931390528831769
140.0 0.9371686357904211 0.0 0.05752769895632015 0.293213645611367 0.293213645611367 0.293213645611367
141.0 0.9376457032494473 0.0 0.05781028820530965 0.2932784716813792 0.2932784716813792 0.2932784716813792
142.0 0.9380890900916105 0.0 0.058087768334462705 0.29333377391904925 0.29333377391904925 0.29333377391904925
143.0 0.9384995949303998 0.0 0.05836022876157232 0.2933797887229425 0.2933797887229425 0.2933797887229425
144.0 0.9388779959333144 0.0 0.05862775715014449 0.2934167462610566 0.2934167462610566 0.2934167462610566
145.0 0.9392250514256708 0.0 0.05889043944404126 0.2934448706605432 0.2934448706605432 0.2934448706605432
146.0 0.9395415004739323 0.0 0.059148359901748916 0.2934643801907278 0.2934643801907278 0.2934643801907278
147.0 0.9398280634493521 0.0 0.05940160113023887 0.2934754874397044 0.2934754874397044 0.2934754874397044
148.0 0.9400854425726728 0.0 0.05965024411839342 0.2934783994847598 0.2934783994847598 0.2934783994847598
149.0 0.9403143224406012 0.0 0.059894368269972846 0.2934733180568761 0.2934733180568761 0.2934733180568761
150.0 0.9405153705347428 0.0 0.06013405143610365 0.2934604396995464 0.2934604396995464 0.2934604396995464
151.0 0.940689237713664 0.0 0.060369369947271156 0.29343995592213096 0.29343995592213096 0.29343995592213096
152.0 0.9408365586886961 0.0 0.06060039864480297 0.2934120533479644 0.2934120533479644 0.2934120533479644
153.0 0.9409579524841101 0.0 0.06082721091183209 0.293376913857426 0.293376913857426 0.293376913857426
154.0 0.9410540228822198 0.0 0.06104987870373077 0.293334714726163 0.293334714726163 0.293334714726163
155.0 0.9411253588539892 0.0 0.061268472578009076 0.29328562875866 0.29328562875866 0.29328562875866
156.0 0.9411725349756614 0.0 0.06148306172367305 0.2932298244173295 0.2932298244173295 0.2932298244173295
157.0 0.9411961118319417 0.0 0.06169371399003998 0.2931674659473006 0.2931674659473006 0.2931674659473006
158.0 0.9411966364062017 0.0 0.06190049591500905 0.2930987134970642 0.2930987134970642 0.2930987134970642
159.0 0.9411746424581995 0.0 0.062103472752787735 0.29302372323513726 0.29302372323513726 0.29302372323513726
160.0 0.9411306508897523 0.0 0.06230270850107498 0.29294264746289245 0.29294264746289245 0.29294264746289245
161.0 0.9410651700988064 0.0 0.06249826592770341 0.292855634723701 0.292855634723701 0.292855634723701
162.0 0.9409786963223141 0.0 0.0626902065967439 0.2927628299085234 0.2927628299085234 0.2927628299085234
163.0 0.9408717139683225 0.0 0.06287859089407664 0.29266437435808196 0.29266437435808196 0.29266437435808196
164.0 0.940744695937658 0.0 0.06306347805243347 0.2925604059617415 0.2925604059617415 0.2925604059617415
165.0 0.9405981039355751 0.0 0.06324492617591679 0.2924510592532194 0.2924510592532194 0.2924510592532194
166.0 0.9404323887737218 0.0 0.06342299226400142 0.29233646550324016 0.29233646550324016 0.29233646550324016
167.0 0.9402479906627722 0.0 0.06359773223502557 0.29221675280924886 0.29221675280924886 0.29221675280924886
168.0 0.9400453394960342 0.0 0.06376920094917801 0.2920920461822854 0.2920920461822854 0.2920920461822854
169.0 0.9398248551243734 0.0 0.06393745223098878 0.2919624676311282 0.2919624676311282 0.2919624676311282
170.0 0.9395869476227299 0.0 0.0641025388913307 0.2918281362437997 0.2918281362437997 0.2918281362437997
171.0 0.9393320175485358 0.0 0.0642645127489401 0.2916891682665319 0.2916891682665319 0.2916891682665319
172.0 0.9390604561923067 0.0 0.06442342465146397 0.2915456771802809 0.2915456771802809 0.2915456771802809
173.0 0.9387726458206742 0.0 0.06457932449604258 0.29139777377487724 0.29139777377487724 0.29139777377487724
174.0 0.9384689599121215 0.0 0.06473226124943511 0.2912455662208955 0.2912455662208955 0.2912455662208955
175.0 0.9381497633856695 0.0 0.0648822829676974 0.291089160139324 0.291089160139324 0.291089160139324
176.0 0.93781541282275 0.0 0.0650294368154196 0.29092865866911016 0.29092865866911016 0.29092865866911016
177.0 0.9374662566824994 0.0 0.06517376908453287 0.2907641625326555 0.2907641625326555 0.2907641625326555
178.0 0.937102635510694 0.0 0.06531532521269316 0.2905957700993336 0.2905957700993336 0.2905957700993336
179.0 0.9367248821425349 0.0 0.06545414980125083 0.29042357744709474 0.29042357744709474 0.29042357744709474
180.0 0.9363333218994967 0.0 0.06559028663281449 0.2902476784222274 0.2902476784222274 0.2902476784222274
181.0 0.935928272780427 0.0 0.0657237786884177 0.29006816469733643 0.29006816469733643 0.29006816469733643
182.0 0.9355100456470954 0.0 0.0658546681642965 0.2898851258275996 0.2898851258275996 0.2898851258275996
183.0 0.9350789444043699 0.0 0.06598299648828679 0.289698649305361 0.289698649305361 0.289698649305361
184.0 0.9346352661751989 0.0 0.0661088043358488 0.28950882061311667 0.28950882061311667 0.28950882061311667
185.0 0.9341793014705684 0.0 0.06623213164572785 0.28931572327494687 0.28931572327494687 0.28931572327494687
186.0 0.9337113343545982 0.0 0.06635301763525886 0.2891194389064465 0.2891194389064465 0.2891194389064465
187.0 0.9332316426049325 0.0 0.06647150081532233 0.28892004726320336 0.28892004726320336 0.28892004726320336
188.0 0.9327404978685815 0.0 0.06658761900496044 0.2887176262878737 0.2887176262878737 0.2887176262878737
189.0 0.9322381658133552 0.0 0.06670140934566005 0.2885122521558984 0.2885122521558984 0.2885122521558984
190.0 0.9317249062750352 0.0 0.06681290831531102 0.2883039993199081 0.2883039993199081 0.2883039993199081
191.0 0.9312009734004161 0.0 0.06692215174184653 0.28809294055285656 0.28809294055285656 0.28809294055285656
192.0 0.9306666157863513 0.0 0.06702917481657336 0.287879146989926 0.287879146989926 0.287879146989926
193.0 0.930122076614929 0.0 0.06713401210719908 0.2876626881692433 0.2876626881692433 0.2876626881692433
194.0 0.9295675937848968 0.0 0.06723669757056307 0.2874436320714446 0.2874436320714446 0.2874436320714446
195.0 0.9290034000394598 0.0 0.06733726456507867 0.28722204515812705 0.28722204515812705 0.28722204515812705
196.0 0.9284297230905599 0.0 0.06743574586289273 0.2869979924092224 0.2869979924092224 0.2869979924092224
197.0 0.9278467857397461 0.0 0.06753217366176993 0.2867715373593254 0.2867715373593254 0.2867715373593254
198.0 0.9272548059957457 0.0 0.06762657959670765 0.28654274213301273 0.28654274213301273 0.28654274213301273
199.0 0.9266539971888363 0.0 0.06771899475128826 0.2863116674791827 0.2863116674791827 0.2863116674791827
200.0 0.9260445680821121 0.0 0.0678094496687749 0.28607837280444576 0.28607837280444576 0.28607837280444576
201.0 0.9254267229797537 0.0 0.06789797436295703 0.28584291620559893 0.28584291620559893 0.28584291620559893
202.0 0.9248006618323728 0.0 0.0679845983287513 0.28560535450120716 0.28560535450120716 0.28560535450120716
203.0 0.924166580339542 0.0 0.06806935055256415 0.28536574326232594 0.28536574326232594 0.28536574326232594
204.0 0.9235246700495783 0.0 0.06815225952242156 0.2851241368423856 0.2851241368423856 0.2851241368423856
205.0 0.9228751184566744 0.0 0.06823335323787148 0.2848805884062676 0.2848805884062676 0.2848805884062676
206.0 0.9222181090954503 0.0 0.06831265921966448 0.2846351499585953 0.2846351499585953 0.2846351499585953
207.0 0.9215538216330081 0.0 0.0683902045192181 0.28438787237126334 0.28438787237126334 0.28438787237126334
208.0 0.9208824319585611 0.0 0.06846601572786981 0.28413880541023046 0.28413880541023046 0.28413880541023046
209.0 0.9202041122707119 0.0 0.06854011898592392 0.28388799776159596 0.28388799776159596 0.28388799776159596
